FFT Frequency [Hz],FFT Magnitude
-27329122.900623407,-77.23369090714871
-27322290.61989825,-77.2349995399731
-27315458.339173097,-77.23630479824499
-27308626.058447942,-77.23760910025634
-27301793.777722783,-77.23891252848351
-27294961.496997632,-77.24021884644459
-27288129.216272473,-77.24149869420185
-27281296.935547315,-77.24281826741046
-27274464.654822163,-77.24411449065944
-27267632.374097005,-77.24541011452865
-27260800.09337185,-77.24669959773834
-27253967.812646694,-77.247998706321
-27247135.53192154,-77.24929165218319
-27240303.25119638,-77.25058437243752
-27233470.97047123,-77.25188001973868
-27226638.68974607,-77.25317041213484
-27219806.409020912,-77.25446323723355
-27212974.12829576,-77.25575576169999
-27206141.8475706,-77.25704117762349
-27199309.566845447,-77.25833434123172
-27192477.286120296,-77.25962536463955
-27185645.005395137,-77.2609219530702
-27178812.724669978,-77.26221392398986
-27171980.443944827,-77.26350924932463
-27165148.163219668,-77.26480061799569
-27158315.88249451,-77.26613041745756
-27151483.601769358,-77.26741525647292
-27144651.321044203,-77.26871919662656
-27137819.040319044,-77.2700244999453
-27130986.759593893,-77.27135444503955
-27124154.478868734,-77.27267051319605
-27117322.198143575,-77.27399973980167
-27110489.917418424,-77.27535435500832
-27103657.636693265,-77.27666532757402
-27096825.35596811,-77.27802295759619
-27089993.075242955,-77.27938623595647
-27083160.7945178,-77.2808139750166
-27076328.51379264,-77.28217149543072
-27069496.233067483,-77.28358386185656
-27062663.95234233,-77.2850123376601
-27055831.671617173,-77.28653545377338
-27048999.390892018,-77.28800439294896
-27042167.110166863,-77.2895258311174
-27035334.829441708,-77.29098385632474
-27028502.54871655,-77.29294653234348
-27021670.267991398,-77.29461471554151
-27014837.98726624,-77.29644556071887
-27008005.70654108,-77.29876923451147
-27001173.42581593,-77.30042785605877
-26994341.14509077,-77.30279743350965
-26987508.864365615,-77.30550711950309
-26980676.583640464,-77.30780874144288
-26973844.302915305,-77.31208966282227
-26967012.022190146,-77.31710002500262
-26960179.741464995,-77.32559652132191
-26953347.460739836,-77.32649256199335
-26946515.18001468,-77.34563322516672
-26939682.899289526,-77.38642048134155
-26932850.61856437,-77.73787856674006
-26926018.337839212,-77.15286740207715
-26919186.05711406,-77.23835852760031
-26912353.776388902,-77.26209439644877
-26905521.495663743,-77.30110856521704
-26898689.214938592,-77.28209949768225
-26891856.934213433,-77.28649242868799
-26885024.65348828,-77.28857593647658
-26878192.372763123,-77.30159471449896
-26871360.09203797,-77.2990051208274
-26864527.81131281,-77.30078233280756
-26857695.53058766,-77.30349799022315
-26850863.2498625,-77.3029869860369
-26844030.96913734,-77.30523355552829
-26837198.68841219,-77.306931003381
-26830366.40768703,-77.3083947786846
-26823534.126961876,-77.30997914569167
-26816701.846236717,-77.31136762867096
-26809869.565511566,-77.31271092544794
-26803037.284786407,-77.31394297986095
-26796205.00406125,-77.31524243202355
-26789372.723336097,-77.31645954517828
-26782540.44261094,-77.31762797897714
-26775708.161885783,-77.31887556735896
-26768875.88116063,-77.31998019020412
-26762043.600435473,-77.32109338817351
-26755211.319710314,-77.32224628402354
-26748379.038985163,-77.3231909017196
-26741546.758260004,-77.32426102704427
-26734714.47753485,-77.3252979943242
-26727882.196809694,-77.32633563041779
-26721049.91608454,-77.3273112867773
-26714217.63535938,-77.32829243864131
-26707385.35463423,-77.32925835780853
-26700553.07390907,-77.33020334127795
-26693720.79318391,-77.33114468579883
-26686888.51245876,-77.33206432551319
-26680056.2317336,-77.33298203289662
-26673223.951008447,-77.33383170396547
-26666391.67028329,-77.33472298469178
-26659559.389558136,-77.33558279709155
-26652727.108832978,-77.33642609115256
-26645894.828107826,-77.33726213521912
-26639062.547382668,-77.33807599780536
-26632230.26665751,-77.33887720422786
-26625397.985932358,-77.33965026077688
-26618565.705207203,-77.3404272358846
-26611733.424482044,-77.34118270847335
-26604901.143756893,-77.34191689548585
-26598068.863031734,-77.34265090501746
-26591236.582306575,-77.34334613550338
-26584404.301581424,-77.34403339023993
-26577572.020856265,-77.34470094054224
-26570739.74013111,-77.3453536994021
-26563907.45940595,-77.34598048757434
-26557075.1786808,-77.34659356573803
-26550242.89795564,-77.34718155048165
-26543410.617230482,-77.34776047084648
-26536578.33650533,-77.3483037308116
-26529746.055780172,-77.34883298306299
-26522913.775055017,-77.34932350325917
-26516081.494329862,-77.3498070134057
-26509249.213604707,-77.35026571552054
-26502416.93287955,-77.35069375720171
-26495584.652154397,-77.35109517331361
-26488752.37142924,-77.35146395127674
-26481920.09070408,-77.35180702458428
-26475087.80997893,-77.35211456578894
-26468255.52925377,-77.35240718792056
-26461423.248528615,-77.35263093461204
-26454590.967803463,-77.35284128460196
-26447758.687078305,-77.35301185338088
-26440926.406353146,-77.3531333201033
-26434094.125627995,-77.3532251693124
-26427261.844902836,-77.3532643562717
-26420429.564177677,-77.35325994656314
-26413597.283452526,-77.35319330360467
-26406765.00272737,-77.35308385550005
-26399932.722002212,-77.3529114991588
-26393100.44127706,-77.35267256794094
-26386268.160551902,-77.35240856454072
-26379435.879826743,-77.3520281308212
-26372603.59910159,-77.35158612145145
-26365771.318376433,-77.3510590177784
-26358939.037651278,-77.3504475002065
-26352106.756926123,-77.34974241284799
-26345274.476200968,-77.34893823207939
-26338442.19547581,-77.34801050224944
-26331609.914750654,-77.34698053581845
-26324777.6340255,-77.34581045374561
-26317945.35330034,-77.34449832263334
-26311113.072575185,-77.34301788295541
-26304280.79185003,-77.34137581127261
-26297448.511124875,-77.33953395597761
-26290616.23039972,-77.3374717733903
-26283783.949674565,-77.33521080270965
-26276951.668949407,-77.33264227328173
-26270119.38822425,-77.3297776243717
-26263287.107499097,-77.3264846416998
-26256454.826773938,-77.32303559117042
-26249622.546048786,-77.31900154421251
-26242790.265323628,-77.3144673508726
-26235957.984598473,-77.30932392287818
-26229125.703873318,-77.30353125788533
-26222293.42314816,-77.29690853169211
-26215461.142423004,-77.28930422776399
-26208628.86169785,-77.2806183458075
-26201796.580972694,-77.27041619886556
-26194964.30024754,-77.25847898381873
-26188132.019522384,-77.24432290290387
-26181299.738797225,-77.22736272080672
-26174467.45807207,-77.20665803515891
-26167635.177346915,-77.1809597363867
-26160802.896621756,-77.15004427535631
-26153970.6158966,-77.10501304986562
-26147138.335171446,-77.04640007742988
-26140306.05444629,-76.96188790932717
-26133473.773721136,-76.82724724739616
-26126641.49299598,-76.59217375883264
-26119809.212270822,-76.05539541514433
-26112976.931545667,-73.67409983908482
-26106144.65082051,-81.9176389350077
-26099312.370095354,-78.9516617545564
-26092480.0893702,-78.33538844653933
-26085647.808645044,-78.07218030539656
-26078815.52791989,-77.93707863737167
-26071983.247194733,-77.84673268076776
-26065150.966469575,-77.78514103461569
-26058318.68574442,-77.73415974937153
-26051486.405019265,-77.70530822640671
-26044654.124294106,-77.67868488357726
-26037821.843568955,-77.65708795894794
-26030989.5628438,-77.64016534378433
-26024157.28211864,-77.62513338800703
-26017325.001393486,-77.61266387156624
-26010492.72066833,-77.60212290793186
-26003660.439943172,-77.5926354295174
-25996828.159218017,-77.58466591033664
-25989995.878492862,-77.57762593917239
-25983163.597767707,-77.57153084555091
-25976331.317042552,-77.56579055632243
-25969499.036317393,-77.56081756147725
-25962666.75559224,-77.55633130263024
-25955834.474867083,-77.55231560507583
-25949002.194141924,-77.5485997159968
-25942169.91341677,-77.54523166744569
-25935337.632691614,-77.5421260228559
-25928505.35196646,-77.53938365662094
-25921673.071241304,-77.5367381599085
-25914840.79051615,-77.5343149455252
-25908008.50979099,-77.53207835043757
-25901176.229065835,-77.52995871625286
-25894343.94834068,-77.52800004179663
-25887511.66761552,-77.52616045570434
-25880679.386890367,-77.52440212712483
-25873847.106165215,-77.52278364252878
-25867014.825440057,-77.52123113653627
-25860182.5447149,-77.519749716477
-25853350.263989743,-77.51834804598052
-25846517.983264588,-77.51698377455797
-25839685.702539433,-77.51568045158994
-25832853.421814278,-77.51442020628058
-25826021.141089123,-77.51319674247603
-25819188.860363968,-77.51201153918085
-25812356.57963881,-77.51084866009079
-25805524.298913654,-77.50971765978676
-25798692.0181885,-77.50858441450666
-25791859.73746334,-77.50747536949041
-25785027.456738185,-77.50637606178617
-25778195.17601303,-77.50527314511811
-25771362.895287875,-77.5041854697503
-25764530.61456272,-77.50308522642956
-25757698.333837565,-77.50198018655308
-25750866.053112406,-77.50086162659753
-25744033.77238725,-77.49973503207275
-25737201.491662093,-77.49858367680613
-25730369.210936937,-77.49741307397733
-25723536.930211782,-77.4962114000763
-25716704.649486627,-77.49499057545725
-25709872.368761472,-77.49372892277799
-25703040.088036317,-77.49243454648364
-25696207.80731116,-77.4910947235943
-25689375.526586004,-77.48970593764234
-25682543.24586085,-77.4882715352325
-25675710.96513569,-77.48677917707043
-25668878.68441054,-77.48523366626725
-25662046.403685383,-77.48361836009968
-25655214.122960225,-77.48193328921846
-25648381.84223507,-77.48016902286471
-25641549.561509915,-77.47834808340767
-25634717.280784756,-77.47641033260334
-25627885.0000596,-77.47438221397611
-25621052.719334446,-77.47226368087763
-25614220.43860929,-77.47002086471407
-25607388.157884136,-77.46766715802202
-25600555.877158977,-77.46518397909958
-25593723.596433822,-77.4625744467193
-25586891.315708667,-77.45979317116598
-25580059.03498351,-77.45686408667876
-25573226.754258353,-77.45376351372643
-25566394.4735332,-77.45043238943802
-25559562.192808043,-77.4469601535685
-25552729.91208289,-77.44324326132983
-25545897.631357733,-77.43928860369905
-25539065.350632574,-77.43505073392657
-25532233.06990742,-77.4305458744951
-25525400.789182264,-77.42572553355886
-25518568.508457106,-77.4205790068554
-25511736.22773195,-77.41499632624158
-25504903.9470068,-77.4090390059638
-25498071.66628164,-77.40261812095353
-25491239.385556486,-77.39570550610792
-25484407.10483133,-77.38818841387328
-25477574.82410617,-77.3800592404355
-25470742.543381017,-77.37122532645417
-25463910.26265586,-77.36154548543531
-25457077.981930707,-77.35103280219786
-25450245.70120555,-77.33948520646855
-25443413.420480393,-77.32684576954604
-25436581.139755238,-77.31255849876652
-25429748.859030083,-77.2969898017063
-25422916.578304924,-77.27957974347757
-25416084.29757977,-77.26008669034124
-25409252.016854614,-77.23800049294492
-25402419.73612946,-77.21299341859923
-25395587.455404304,-77.18441688111348
-25388755.17467915,-77.15086084502809
-25381922.89395399,-77.11280404662297
-25375090.613228835,-77.06753380386391
-25368258.33250368,-77.01334433898478
-25361426.05177852,-76.94894721514561
-25354593.771053366,-76.86809240227805
-25347761.49032821,-76.76649570474665
-25340929.209603056,-76.63170586544004
-25334096.9288779,-76.46609047135227
-25327264.648152743,-76.22368599520377
-25320432.367427588,-75.87050165115507
-25313600.086702432,-75.3050365878253
-25306767.805977274,-74.3495025667703
-25299935.525252122,-72.3828294921213
-25293103.244526967,-66.99068119348772
-25286270.96380181,-59.91925050384501
-25279438.683076654,-73.2134530682812
-25272606.4023515,-76.55421572697884
-25265774.12162634,-77.60607293223029
-25258941.840901185,-77.98047398192219
-25252109.56017603,-78.09619587781012
-25245277.279450875,-78.12880844846268
-25238444.99872572,-78.13163146761019
-25231612.718000565,-78.10990950102844
-25224780.437275406,-78.090105261422
-25217948.15655025,-78.068639057933
-25211115.875825092,-78.04735360148062
-25204283.595099937,-78.02750180268029
-25197451.314374782,-78.00895420026654
-25190619.033649627,-77.99192385194016
-25183786.752924472,-77.9760108908877
-25176954.472199317,-77.96179209351892
-25170122.19147416,-77.94870256059052
-25163289.910749003,-77.93672648164174
-25156457.63002385,-77.92569522653538
-25149625.34929869,-77.91560570307597
-25142793.068573534,-77.90632249271003
-25135960.787848383,-77.89769474504129
-25129128.507123224,-77.88989368287068
-25122296.22639807,-77.88260097730995
-25115463.945672914,-77.87586610908305
-25108631.664947756,-77.86945371470692
-25101799.3842226,-77.8637297050814
-25094967.10349744,-77.85832984654814
-25088134.82277229,-77.85328286744888
-25081302.542047136,-77.8486336636987
-25074470.261321977,-77.84423620506799
-25067637.98059682,-77.84014055490812
-25060805.699871667,-77.83631494626485
-25053973.419146508,-77.83272242659963
-25047141.138421353,-77.82936251555051
-25040308.857696198,-77.82621336271527
-25033476.576971043,-77.82323633018349
-25026644.296245888,-77.82048134946704
-25019812.015520733,-77.81787394184369
-25012979.734795574,-77.81542562105682
-25006147.45407042,-77.81311426047321
-24999315.173345264,-77.81094926369677
-24992482.892620105,-77.80891074251419
-24985650.61189495,-77.80698416220386
-24978818.331169795,-77.80519560748775
-24971986.05044464,-77.80349556464824
-24965153.769719485,-77.80189306890942
-24958321.488994326,-77.80038879587283
-24951489.20826917,-77.79896634617194
-24944656.927544016,-77.7976363082957
-24937824.646818858,-77.79638041991801
-24930992.366093703,-77.79520654375678
-24924160.08536855,-77.7940894034562
-24917327.804643393,-77.79305021855477
-24910495.523918238,-77.79206969867077
-24903663.243193083,-77.79116041392467
-24896830.962467924,-77.79029618749139
-24889998.68174277,-77.78948974270648
-24883166.401017614,-77.78873465138149
-24876334.12029246,-77.7880275157219
-24869501.839567304,-77.78737789589353
-24862669.55884215,-77.786763310255
-24855837.27811699,-77.7861982921878
-24849004.997391835,-77.78566884671652
-24842172.71666668,-77.78517189050464
-24835340.43594152,-77.78472017779765
-24828508.155216366,-77.7843062299544
-24821675.87449121,-77.78391501364158
-24814843.593766056,-77.78357014483763
-24808011.3130409,-77.78325256058325
-24801179.032315742,-77.7829601810622
-24794346.751590587,-77.7827024834155
-24787514.470865432,-77.78246914980957
-24780682.190140273,-77.78226133748171
-24773849.90941512,-77.7820762422924
-24767017.628689967,-77.78192974229503
-24760185.34796481,-77.7817946367952
-24753353.067239653,-77.78168359503772
-24746520.7865145,-77.78162432697636
-24739688.50578934,-77.78152341116875
-24732856.225064185,-77.78147526384484
-24726023.94433903,-77.78144195663086
-24719191.663613874,-77.78145182662749
-24712359.38288872,-77.78144650881997
-24705527.10216356,-77.78146814617833
-24698694.821438406,-77.78149648883337
-24691862.54071325,-77.78158432683169
-24685030.259988092,-77.78164694344379
-24678197.979262937,-77.78173310068314
-24671365.69853778,-77.78184226604529
-24664533.417812627,-77.78194239114235
-24657701.13708747,-77.78207081388403
-24650868.856362317,-77.78221228964658
-24644036.575637158,-77.78236920563711
-24637204.294912003,-77.78253193785424
-24630372.014186848,-77.78271105472048
-24623539.73346169,-77.78290636359839
-24616707.452736534,-77.78305173012608
-24609875.17201138,-77.78328718842752
-24603042.891286224,-77.78351221873731
-24596210.61056107,-77.78378329559166
-24589378.329835914,-77.78393289377524
-24582546.049110755,-77.78420178522447
-24575713.7683856,-77.78447368571628
-24568881.48766044,-77.78510828557769
-24562049.206935287,-77.7849600329466
-24555216.926210135,-77.78528931584297
-24548384.645484976,-77.78569524326944
-24541552.36475982,-77.78516254634921
-24534720.084034666,-77.78618310558117
-24527887.803309508,-77.78695278455643
-24521055.522584353,-77.78974832218591
-24514223.241859198,-77.78126203302716
-24507390.961134043,-77.78415028339731
-24500558.680408888,-77.78406223591203
-24493726.399683733,-77.77764521304103
-24486894.118958574,-77.78815860236178
-24480061.83823342,-77.78547761883777
-24473229.557508264,-77.78042074845531
-24466397.276783105,-78.04464817213673
-24459564.99605795,-77.80064582764432
-24452732.715332795,-77.7967602232212
-24445900.43460764,-77.79699028903381
-24439068.153882485,-77.78877162451326
-24432235.873157326,-77.79268938740071
-24425403.59243217,-77.79318507336947
-24418571.311707016,-77.79276424475044
-24411739.030981857,-77.79507128398934
-24404906.750256702,-77.79493832970249
-24398074.469531547,-77.79520852947329
-24391242.188806392,-77.79580289136618
-24384409.908081237,-77.79581685562435
-24377577.627356082,-77.79621537484803
-24370745.346630923,-77.79660558526173
-24363913.06590577,-77.7971706626461
-24357080.785180613,-77.79747361689354
-24350248.50445546,-77.79789534804883
-24343416.223730303,-77.79834668672704
-24336583.94300515,-77.79869459557203
-24329751.66227999,-77.79917468255304
-24322919.381554835,-77.79963242070755
-24316087.100829676,-77.80014251323524
-24309254.82010452,-77.8004926435915
-24302422.539379366,-77.80097376279295
-24295590.25865421,-77.80144110083991
-24288757.977929056,-77.80200796962703
-24281925.6972039,-77.80238161185957
-24275093.416478742,-77.80285706738309
-24268261.135753587,-77.803341253051
-24261428.85502843,-77.80377057516091
-24254596.574303273,-77.80428257548047
-24247764.293578118,-77.8047678321469
-24240932.012852963,-77.80524555446544
-24234099.732127808,-77.80576358424524
-24227267.451402653,-77.80624752922431
-24220435.170677498,-77.8067408088067
-24213602.88995234,-77.8072378448479
-24206770.609227184,-77.80773258774315
-24199938.32850203,-77.80823463314314
-24193106.04777687,-77.80873618667292
-24186273.76705172,-77.8092422794693
-24179441.48632656,-77.80974548923496
-24172609.205601405,-77.81025432351178
-24165776.92487625,-77.81076663090408
-24158944.64415109,-77.81126001341256
-24152112.363425937,-77.81177762050031
-24145280.08270078,-77.8122918478517
-24138447.801975626,-77.81280070086565
-24131615.52125047,-77.81332808130769
-24124783.240525316,-77.81384283884327
-24117950.959800158,-77.8143599581502
-24111118.679075003,-77.81487488472493
-24104286.398349848,-77.81540540075754
-24097454.11762469,-77.8159180677268
-24090621.836899534,-77.81644147989236
-24083789.55617438,-77.8169583237947
-24076957.275449224,-77.81748948612888
-24070124.99472407,-77.81801147946796
-24063292.71399891,-77.81853902271068
-24056460.433273755,-77.81906449045215
-24049628.1525486,-77.81957709507847
-24042795.87182344,-77.82011130958104
-24035963.591098286,-77.82064147279887
-24029131.31037313,-77.82116562086705
-24022299.029647976,-77.82169938910143
-24015466.74892282,-77.82222697736127
-24008634.468197666,-77.82275712048977
-24001802.187472507,-77.82328823472851
-23994969.906747352,-77.82381475237626
-23988137.626022197,-77.82434495027243
-23981305.345297042,-77.8248762461212
-23974473.064571887,-77.82540579218039
-23967640.783846732,-77.82593614035599
-23960808.503121573,-77.82646629561074
-23953976.22239642,-77.82700033233587
-23947143.941671263,-77.827520028449
-23940311.660946105,-77.82805335552611
-23933479.38022095,-77.82858031513322
-23926647.099495795,-77.82909838941362
-23919814.81877064,-77.82965059254403
-23912982.538045485,-77.83017542476772
-23906150.257320326,-77.83070363408818
-23899317.97659517,-77.83121055334504
-23892485.695870016,-77.83175582102855
-23885653.415144857,-77.83228206859931
-23878821.134419702,-77.83281210009561
-23871988.853694547,-77.83330299986461
-23865156.572969392,-77.83383954546383
-23858324.292244237,-77.83435517348067
-23851492.011519082,-77.83483209338372
-23844659.730793923,-77.83545867563757
-23837827.450068768,-77.83594348686299
-23830995.169343613,-77.83644470835897
-23824162.888618454,-77.836888261514
-23817330.607893303,-77.83748397418906
-23810498.327168144,-77.83797759883629
-23803666.04644299,-77.8384689569952
-23796833.765717834,-77.83910593537503
-23790001.484992675,-77.83948474600547
